  #Energy          xx             yy              zz              xy              yz              zx
 1.239842E+06  0.00000000E+00  0.00000000E+00  0.00000000E+00  0.00000000E+00  0.00000000E+00  0.00000000E+00
 1.971132E+04 -4.37993225E+13 -4.46297424E+13 -4.35574970E+13  7.60457715E+12  7.60457715E+12  2.68548037E+13
 9.863500E+03 -8.75624453E+13 -8.92265239E+13 -8.70776590E+13  1.51970643E+13  1.51970643E+13  4.28906747E+13
 6.573923E+03 -1.31462864E+14 -1.33968764E+14 -1.30735492E+14  2.28016415E+13  2.28016415E+13  5.20835095E+13
 4.929789E+03 -1.75462125E+14 -1.78822012E+14 -1.74492167E+14  3.04062186E+13  3.04062186E+13  5.92252327E+13
 3.944772E+03 -2.19529923E+14 -2.23755379E+14 -2.18310165E+14  3.79987058E+13  3.79987058E+13  6.61633466E+13
 3.286962E+03 -2.63833233E+14 -2.68945361E+14 -2.62369368E+14  4.56032830E+13  4.56032830E+13  7.34304063E+13
 2.817182E+03 -3.08344870E+14 -3.14368000E+14 -3.06631577E+14  5.32078601E+13  5.32078601E+13  8.10781373E+13
 2.465385E+03 -3.53025057E+14 -3.59986696E+14 -3.51055125E+14  6.08003473E+13  6.08003473E+13  8.90542687E+13
 2.191308E+03 -3.98055096E+14 -4.05990067E+14 -3.95831936E+14  6.84049245E+13  6.84049245E+13  9.73333670E+13
 1.972072E+03 -4.43401428E+14 -4.52340145E+14 -4.40915917E+14  7.60095016E+13  7.60095016E+13  1.05850832E+14
 1.792975E+03 -4.89029834E+14 -4.99020271E+14 -4.86287688E+14  8.36019888E+13  8.36019888E+13  1.14559805E+14
 1.643481E+03 -5.35127164E+14 -5.46217882E+14 -5.32117347E+14  9.12065660E+13  9.12065660E+13  1.23466328E+14
 1.517183E+03 -5.81600386E+14 -5.93831709E+14 -5.78310378E+14  9.87990532E+13  9.87990532E+13  1.32509290E+14
 1.408751E+03 -6.28622007E+14 -6.42050146E+14 -6.25046846E+14  1.06403630E+14  1.06403630E+14  1.41708355E+14
 1.314785E+03 -6.76171278E+14 -6.90878336E+14 -6.72306399E+14  1.14008207E+14  1.14008207E+14  1.51038073E+14
 1.232692E+03 -7.24217257E+14 -7.40280709E+14 -7.20070673E+14  1.21600695E+14  1.21600695E+14  1.60488597E+14
 1.160140E+03 -7.72983459E+14 -7.90464932E+14 -7.68525877E+14  1.29205272E+14  1.29205272E+14  1.70072899E+14
 1.095654E+03 -8.22418726E+14 -8.41421614E+14 -8.17657743E+14  1.36809849E+14  1.36809849E+14  1.79781822E+14
 1.038046E+03 -8.72536676E+14 -8.93142889E+14 -8.67453714E+14  1.44402336E+14  1.44402336E+14  1.89585827E+14
 9.861146E+02 -9.23518002E+14 -9.45847817E+14 -9.18106556E+14  1.52006913E+14  1.52006913E+14  1.99554676E+14
 9.391319E+02 -9.75369857E+14 -9.99535037E+14 -9.69607882E+14  1.59611490E+14  1.59611490E+14  2.09649693E+14
 8.964873E+02 -1.02808710E+15 -1.05422108E+15 -1.02196743E+15  1.67203978E+14  1.67203978E+14  2.19873231E+14
 8.574880E+02 -1.08189015E+15 -1.11015669E+15 -1.07540475E+15  1.74808555E+14  1.74808555E+14  2.30275309E+14
 8.217404E+02 -1.13679864E+15 -1.16733460E+15 -1.12990342E+15  1.82413132E+14  1.82413132E+14  2.40821817E+14
 7.889042E+02 -1.19281728E+15 -1.22580225E+15 -1.18550206E+15  1.90005619E+14  1.90005619E+14  2.51529439E+14
 7.585451E+02 -1.25020067E+15 -1.28581003E+15 -1.24243459E+15  1.97610196E+14  1.97610196E+14  2.62446102E+14
 7.304359E+02 -1.30896243E+15 -1.34744020E+15 -1.30073332E+15  2.05214773E+14  2.05214773E+14  2.73571814E+14
 7.043756E+02 -1.36913807E+15 -1.41074189E+15 -1.36041297E+15  2.12807261E+14  2.12807261E+14  2.84906361E+14
 6.800735E+02 -1.43104590E+15 -1.47603195E+15 -1.42178860E+15  2.20411838E+14  2.20411838E+14  2.96498004E+14
 6.573923E+02 -1.49473881E+15 -1.54339751E+15 -1.48488850E+15  2.28016415E+14  2.28016415E+14  3.08346598E+14
 6.362079E+02 -1.56029639E+15 -1.61295498E+15 -1.54978824E+15  2.35608902E+14  2.35608902E+14  3.20498790E+14
 6.163155E+02 -1.62804671E+15 -1.68510459E+15 -1.61683457E+15  2.43213479E+14  2.43213479E+14  3.33007896E+14
 5.976294E+02 -1.69813857E+15 -1.75999030E+15 -1.68614947E+15  2.50818056E+14  2.50818056E+14  3.45853018E+14
 5.800701E+02 -1.77068073E+15 -1.83781579E+15 -1.75781188E+15  2.58410544E+14  2.58410544E+14  3.59113132E+14
 5.634877E+02 -1.84601193E+15 -1.91903308E+15 -1.83225895E+15  2.66015121E+14  2.66015121E+14  3.72820192E+14
 5.478269E+02 -1.92412108E+15 -2.00379913E+15 -1.90956451E+15  2.73619698E+14  2.73619698E+14  3.86980339E+14
 5.330361E+02 -2.00490227E+15 -2.09210617E+15 -1.98980118E+15  2.81212185E+14  2.81212185E+14  4.01599122E+14
 5.190012E+02 -2.08889611E+15 -2.18455223E+15 -2.07330001E+15  2.88816762E+14  2.88816762E+14  4.16675943E+14
 5.057070E+02 -2.17662204E+15 -2.28166948E+15 -2.16026025E+15  2.96409249E+14  2.96409249E+14  4.32431454E+14
 4.930573E+02 -2.26934161E+15 -2.38459325E+15 -2.25170881E+15  3.04013827E+14  3.04013827E+14  4.49362837E+14
 4.810250E+02 -2.36808174E+15 -2.49431835E+15 -2.34844978E+15  3.11618404E+14  3.11618404E+14  4.67676900E+14
 4.695837E+02 -2.47311830E+15 -2.61187927E+15 -2.45080546E+15  3.19210891E+14  3.19210891E+14  4.86988135E+14
 4.586571E+02 -2.58504499E+15 -2.73845217E+15 -2.55935729E+15  3.26815468E+14  3.26815468E+14  5.07413696E+14
 4.482274E+02 -2.70472244E+15 -2.87500913E+15 -2.67509283E+15  3.34420045E+14  3.34420045E+14  5.29386932E+14
 4.382770E+02 -2.83271880E+15 -3.02308298E+15 -2.79913317E+15  3.42012532E+14  3.42012532E+14  5.52555447E+14
 4.287440E+02 -2.96821430E+15 -3.18378821E+15 -2.93230862E+15  3.49617110E+14  3.49617110E+14  5.75155107E+14
 4.196169E+02 -3.10775723E+15 -3.35477603E+15 -3.07314245E+15  3.57221687E+14  3.57221687E+14  5.93988221E+14
 4.108838E+02 -3.24586115E+15 -3.52680454E+15 -3.21824472E+15  3.64814174E+14  3.64814174E+14  6.06065787E+14
 4.024938E+02 -3.37880636E+15 -3.68526975E+15 -3.36577170E+15  3.72418751E+14  3.72418751E+14  6.13708860E+14
 3.944396E+02 -3.50525917E+15 -3.82504881E+15 -3.51453174E+15  3.80023328E+14  3.80023328E+14  6.22250198E+14
 3.867134E+02 -3.62416911E+15 -3.95538683E+15 -3.66254308E+15  3.87615815E+14  3.87615815E+14  6.35496129E+14
 3.792725E+02 -3.74111671E+15 -4.07895111E+15 -3.81079407E+15  3.95220393E+14  3.95220393E+14  6.58476696E+14
 3.721126E+02 -3.87175220E+15 -4.19699308E+15 -3.96730228E+15  4.02824970E+14  4.02824970E+14  6.97451153E+14
 3.652287E+02 -4.02718025E+15 -4.33101230E+15 -4.14230235E+15  4.10417457E+14  4.10417457E+14  7.48888734E+14
 3.585845E+02 -4.20350417E+15 -4.48863700E+15 -4.33681139E+15  4.18022034E+14  4.18022034E+14  7.97209821E+14
 3.521778E+02 -4.38723142E+15 -4.65558900E+15 -4.53875449E+15  4.25626611E+14  4.25626611E+14  8.21459360E+14
 3.460056E+02 -4.56171046E+15 -4.84040031E+15 -4.72971283E+15  4.33219098E+14  4.33219098E+14  7.99462524E+14
 3.400367E+02 -4.72130973E+15 -5.05413160E+15 -4.90363440E+15  4.40823676E+14  4.40823676E+14  7.30797489E+14
 3.342703E+02 -4.86203849E+15 -5.28154312E+15 -5.05737383E+15  4.48428253E+14  4.48428253E+14  6.30131381E+14
 3.287049E+02 -4.96957722E+15 -5.49883489E+15 -5.17556179E+15  4.56020740E+14  4.56020740E+14  5.13798568E+14
 3.233133E+02 -5.03376552E+15 -5.66856130E+15 -5.23349530E+15  4.63625317E+14  4.63625317E+14  3.98393235E+14
 3.181039E+02 -5.05352822E+15 -5.73439082E+15 -5.21501456E+15  4.71217804E+14  4.71217804E+14  2.88055444E+14
 3.130519E+02 -5.04951719E+15 -5.63301014E+15 -5.15078812E+15  4.78822381E+14  4.78822381E+14  1.83388972E+14
 3.081578E+02 -5.02114228E+15 -5.32433220E+15 -5.06326685E+15  4.86426959E+14  4.86426959E+14  7.55907494E+13
 3.034217E+02 -4.97897498E+15 -4.87794801E+15 -4.95121109E+15  4.94019446E+14  4.94019446E+14 -9.38636947E+11
 2.988219E+02 -4.97500673E+15 -4.47092475E+15 -4.83640802E+15  5.01624023E+14  5.01624023E+14 -2.82915949E+13
 2.943594E+02 -4.99858794E+15 -4.18020665E+15 -4.71087378E+15  5.09228600E+14  5.09228600E+14 -4.46593482E+13
 2.900351E+02 -5.01223427E+15 -3.94029565E+15 -4.57800119E+15  5.16821087E+14  5.16821087E+14 -6.67216024E+13
 2.858293E+02 -5.00139512E+15 -3.69604720E+15 -4.47654991E+15  5.24425664E+14  5.24425664E+14 -9.16696061E+13
 2.817438E+02 -4.94123087E+15 -3.42260375E+15 -4.38568489E+15  5.32030241E+14  5.32030241E+14 -1.15503765E+14
 2.777797E+02 -4.79670644E+15 -3.11141069E+15 -4.22664898E+15  5.39622729E+14  5.39622729E+14 -1.16990208E+14
 2.739195E+02 -4.58012838E+15 -2.77307437E+15 -3.96433349E+15  5.47227306E+14  5.47227306E+14 -8.05518594E+13
 2.701652E+02 -4.34250270E+15 -2.40358720E+15 -3.62349606E+15  5.54831883E+14  5.54831883E+14 -2.35248718E+13
 2.665180E+02 -4.10401063E+15 -1.93912674E+15 -3.27944026E+15  5.62424370E+14  5.62424370E+14 -2.53090967E+12
 2.629625E+02 -3.85875396E+15 -1.38186417E+15 -2.99396304E+15  5.70028947E+14  5.70028947E+14 -2.92424850E+13
 2.595006E+02 -3.56578951E+15 -8.59923028E+14 -2.72706563E+15  5.77633524E+14  5.77633524E+14 -5.45286047E+13
 2.561339E+02 -3.21809932E+15 -4.73213753E+14 -2.44285042E+15  5.85226012E+14  5.85226012E+14 -5.47771547E+13
 2.528484E+02 -2.87339058E+15 -2.47506771E+14 -2.16632154E+15  5.92830589E+14  5.92830589E+14 -5.07462984E+13
 2.496460E+02 -2.56391820E+15 -1.67701542E+14 -1.92541545E+15  6.00435166E+14  6.00435166E+14 -5.75216889E+13
 2.465287E+02 -2.28022530E+15 -1.81009832E+14 -1.72515686E+15  6.08027653E+14  6.08027653E+14 -8.54886880E+13
 2.434834E+02 -2.01108581E+15 -2.20581028E+14 -1.56321336E+15  6.15632230E+14  6.15632230E+14 -1.22141434E+14
 2.405125E+02 -1.74250779E+15 -2.39447581E+14 -1.41231693E+15  6.23236807E+14  6.23236807E+14 -1.54001815E+14
 2.376178E+02 -1.45803575E+15 -2.14608126E+14 -1.24065197E+15  6.30829295E+14  6.30829295E+14 -1.92150603E+14
 2.347874E+02 -1.16986623E+15 -1.65737433E+14 -1.07582492E+15  6.38433872E+14  6.38433872E+14 -2.37816617E+14
 2.320237E+02 -9.01482052E+14 -1.28884671E+14 -9.46769347E+14  6.46038449E+14  6.46038449E+14 -2.64681953E+14
 2.293286E+02 -6.73958858E+14 -1.12293795E+14 -8.30372741E+14  6.53630936E+14  6.53630936E+14 -2.51255732E+14
 2.266912E+02 -4.88719168E+14 -1.08508748E+14 -7.07521999E+14  6.61235513E+14  6.61235513E+14 -1.98106160E+14
 2.241178E+02 -3.22709510E+14 -1.04872230E+14 -5.82214774E+14  6.68828000E+14  6.68828000E+14 -1.25338367E+14
 2.215982E+02 -1.66131841E+14 -9.41594148E+13 -4.63221029E+14  6.76432578E+14  6.76432578E+14 -5.61439039E+13
 2.191346E+02 -3.91953290E+13 -7.53124907E+13 -3.72184616E+14  6.84037155E+14  6.84037155E+14  3.89901178E+12
 2.167291E+02  3.25065932E+13 -4.73766305E+13 -3.39866806E+14  6.91629642E+14  6.91629642E+14  6.03792677E+13
 2.143720E+02  5.32117241E+13 -7.41188272E+12 -3.53882438E+14  6.99234219E+14  6.99234219E+14  1.16282651E+14
 2.120657E+02  4.42481086E+13  5.77487297E+13 -3.75402085E+14  7.06838796E+14  7.06838796E+14  1.72610034E+14
 2.098120E+02  3.15778627E+13  1.46744186E+14 -3.93151535E+14  7.14431283E+14  7.14431283E+14  2.26331831E+14
 2.076022E+02  2.62099017E+13  2.38271834E+14 -4.26506583E+14  7.22035861E+14  7.22035861E+14  2.72785148E+14
 2.054385E+02  4.15895050E+12  3.08929761E+14 -5.07829745E+14  7.29640438E+14  7.29640438E+14  3.16518022E+14
 2.033228E+02 -6.70144729E+13  3.41633737E+14 -6.45521149E+14  7.37232925E+14  7.37232925E+14  3.59769667E+14
 2.012469E+02 -1.96115714E+14  3.30782335E+14 -8.24535115E+14  7.44837502E+14  7.44837502E+14  3.94391457E+14
 1.992130E+02 -3.58613895E+14  2.88034828E+14 -1.02437465E+15  7.52442079E+14  7.52442079E+14  4.29042474E+14
 1.972229E+02 -5.27691999E+14  2.30670491E+14 -1.22608776E+15  7.60034566E+14  7.60034566E+14  4.79505808E+14
 1.952691E+02 -6.83659421E+14  1.70492654E+14 -1.40754313E+15  7.67639144E+14  7.67639144E+14  5.39650318E+14
 1.933537E+02 -7.95089960E+14  1.14813595E+14 -1.54110699E+15  7.75243721E+14  7.75243721E+14  5.98875774E+14
 1.914784E+02 -8.33407427E+14  6.90461535E+13 -1.60833699E+15  7.82836208E+14  7.82836208E+14  6.54372786E+14
 1.896363E+02 -7.83484906E+14  4.29999787E+13 -1.59447715E+15  7.90440785E+14  7.90440785E+14  7.00014359E+14
 1.878292E+02 -6.39713162E+14  4.53289766E+13 -1.49019010E+15  7.98045362E+14  7.98045362E+14  7.35718019E+14
 1.860591E+02 -4.17481534E+14  6.66262501E+13 -1.31641225E+15  8.05637849E+14  8.05637849E+14  7.56977323E+14
 1.843193E+02 -1.62729810E+14  7.87218669E+13 -1.12780460E+15  8.13242427E+14  8.13242427E+14  7.65749069E+14
 1.826117E+02  8.06892605E+13  7.28091292E+13 -9.48981221E+14  8.20847004E+14  8.20847004E+14  7.83908889E+14
 1.809381E+02  3.06108392E+14  6.66893790E+13 -7.59927545E+14  8.28439491E+14  8.28439491E+14  8.27445364E+14
 1.792923E+02  5.18347322E+14  6.73851519E+13 -5.49280953E+14  8.36044068E+14  8.36044068E+14  8.84116602E+14
 1.776787E+02  7.08654706E+14  7.66021992E+13 -3.12314253E+14  8.43636555E+14  8.43636555E+14  9.39642395E+14
 1.760914E+02  8.64775866E+14  1.09129113E+14 -4.62223935E+13  8.51241132E+14  8.51241132E+14  9.96803366E+14
 1.745322E+02  1.00218706E+15  1.72026796E+14  2.60487904E+14  8.58845710E+14  8.58845710E+14  1.06024503E+15
 1.730028E+02  1.14127239E+15  2.55859199E+14  6.02694410E+14  8.66438197E+14  8.66438197E+14  1.11527925E+15
 1.714976E+02  1.27610245E+15  3.42799576E+14  9.36187215E+14  8.74042774E+14  8.74042774E+14  1.13887773E+15
 1.700184E+02  1.39749922E+15  4.22573575E+14  1.21649701E+15  8.81647351E+14  8.81647351E+14  1.13723692E+15
 1.685667E+02  1.50450488E+15  5.01620193E+14  1.43985715E+15  8.89239838E+14  8.89239838E+14  1.14605230E+15
 1.671374E+02  1.60167444E+15  5.79989283E+14  1.64857940E+15  8.96844415E+14  8.96844415E+14  1.16033730E+15
 1.657321E+02  1.69086739E+15  6.50208381E+14  1.85972802E+15  9.04448993E+14  9.04448993E+14  1.15832782E+15
 1.643524E+02  1.77246141E+15  7.15952562E+14  2.03020433E+15  9.12041480E+14  9.12041480E+14  1.15829268E+15
 1.629934E+02  1.84508588E+15  7.74893768E+14  2.12695740E+15  9.19646057E+14  9.19646057E+14  1.17576748E+15
 1.616567E+02  1.89789660E+15  8.08191653E+14  2.16299755E+15  9.27250634E+14  9.27250634E+14  1.19392792E+15
 1.603437E+02  1.92923575E+15  8.06956582E+14  2.16014200E+15  9.34843121E+14  9.34843121E+14  1.20024508E+15
 1.590499E+02  1.95030127E+15  7.80629429E+14  2.13172245E+15  9.42447698E+14  9.42447698E+14  1.19719131E+15
 1.577768E+02  1.96537314E+15  7.49306230E+14  2.09382021E+15  9.50052276E+14  9.50052276E+14  1.18319510E+15
 1.565259E+02  1.98127125E+15  7.38344112E+14  2.07263056E+15  9.57644763E+14  9.57644763E+14  1.15080171E+15
 1.552928E+02  2.01370317E+15  7.48164763E+14  2.08571077E+15  9.65249340E+14  9.65249340E+14  1.09845375E+15
 1.540789E+02  2.06994128E+15  7.68846451E+14  2.14115419E+15  9.72853917E+14  9.72853917E+14  1.03210072E+15
 1.528857E+02  2.13207875E+15  7.97789239E+14  2.22198569E+15  9.80446404E+14  9.80446404E+14  9.68583003E+14
 1.517090E+02  2.17400857E+15  8.20872755E+14  2.28032286E+15  9.88050981E+14  9.88050981E+14  9.25507354E+14
 1.505503E+02  2.19512181E+15  8.24601934E+14  2.28333689E+15  9.95655558E+14  9.95655558E+14  9.09332222E+14
 1.494109E+02  2.20473791E+15  8.14838063E+14  2.23864769E+15  1.00324805E+15  1.00324805E+15  9.15664491E+14
 1.482869E+02  2.19365128E+15  8.10198377E+14  2.17889283E+15  1.01085262E+15  1.01085262E+15  9.32713715E+14
 1.471797E+02  2.15597205E+15  8.30042618E+14  2.12022420E+15  1.01845720E+15  1.01845720E+15  9.49507648E+14
 1.460906E+02  2.12238378E+15  8.80042817E+14  2.07118390E+15  1.02604969E+15  1.02604969E+15  9.74336783E+14
 1.450158E+02  2.12943115E+15  9.50548461E+14  2.05242391E+15  1.03365426E+15  1.03365426E+15  1.03634177E+15
 1.439584E+02  2.14736318E+15  1.02167131E+15  2.04167663E+15  1.04124675E+15  1.04124675E+15  1.12215162E+15
 1.429147E+02  2.12465814E+15  1.08178526E+15  1.99543965E+15  1.04885133E+15  1.04885133E+15  1.19013160E+15
 1.418859E+02  2.06589952E+15  1.13304896E+15  1.91746747E+15  1.05645591E+15  1.05645591E+15  1.22802434E+15
 1.408735E+02  2.00839134E+15  1.17204930E+15  1.84420867E+15  1.06404839E+15  1.06404839E+15  1.25323620E+15
 1.398739E+02  1.98888075E+15  1.19242826E+15  1.82256021E+15  1.07165297E+15  1.07165297E+15  1.29509261E+15
 1.388883E+02  2.00558430E+15  1.19797588E+15  1.86128757E+15  1.07925755E+15  1.07925755E+15  1.36590835E+15
 1.379181E+02  2.02001947E+15  1.20205614E+15  1.91079105E+15  1.08685003E+15  1.08685003E+15  1.43366388E+15
 1.369598E+02  2.02397491E+15  1.20302451E+15  1.94145304E+15  1.09445461E+15  1.09445461E+15  1.47258868E+15
 1.360147E+02  2.04454021E+15  1.18405239E+15  1.97114307E+15  1.10205919E+15  1.10205919E+15  1.49813926E+15
 1.350840E+02  2.09069472E+15  1.15181844E+15  2.01679192E+15  1.10965168E+15  1.10965168E+15  1.53076449E+15
 1.341646E+02  2.15284107E+15  1.13032815E+15  2.07239862E+15  1.11725625E+15  1.11725625E+15  1.55868420E+15
 1.332576E+02  2.21721318E+15  1.12069885E+15  2.12171250E+15  1.12486083E+15  1.12486083E+15  1.55928208E+15
 1.323642E+02  2.27215434E+15  1.10923802E+15  2.16196663E+15  1.13245332E+15  1.13245332E+15  1.54376036E+15
 1.314813E+02  2.30462703E+15  1.08829927E+15  2.19358540E+15  1.14005789E+15  1.14005789E+15  1.51901314E+15
 1.306100E+02  2.30909689E+15  1.05355415E+15  2.21108652E+15  1.14766247E+15  1.14766247E+15  1.47727113E+15
 1.297517E+02  2.29456740E+15  1.01523806E+15  2.21369955E+15  1.15525496E+15  1.15525496E+15  1.43401798E+15
 1.289031E+02  2.26839010E+15  9.94710047E+14  2.20152567E+15  1.16285954E+15  1.16285954E+15  1.40915319E+15
 1.280656E+02  2.23465009E+15  9.96650192E+14  2.17823371E+15  1.17046411E+15  1.17046411E+15  1.40209896E+15
 1.272403E+02  2.20155217E+15  1.00558911E+15  2.15301624E+15  1.17805660E+15  1.17805660E+15  1.40860228E+15
 1.264242E+02  2.17533256E+15  9.97141050E+14  2.13181880E+15  1.18566118E+15  1.18566118E+15  1.43512429E+15
 1.256185E+02  2.15002624E+15  9.65471322E+14  2.11768873E+15  1.19326575E+15  1.19326575E+15  1.48155876E+15
 1.248243E+02  2.11579214E+15  9.27182649E+14  2.10726604E+15  1.20085824E+15  1.20085824E+15  1.52172756E+15
 1.240388E+02  2.06405450E+15  8.99217184E+14  2.07710589E+15  1.20846282E+15  1.20846282E+15  1.53221001E+15
 1.232643E+02  1.99810047E+15  8.85653080E+14  2.01500364E+15  1.21605531E+15  1.21605531E+15  1.51666418E+15
 1.224983E+02  1.94047984E+15  8.83849534E+14  1.94904546E+15  1.22365988E+15  1.22365988E+15  1.48845988E+15
 1.217417E+02  1.91042994E+15  8.93774872E+14  1.90575113E+15  1.23126446E+15  1.23126446E+15  1.45917151E+15
 1.209956E+02  1.88950462E+15  9.30257682E+14  1.86943513E+15  1.23885695E+15  1.23885695E+15  1.43620686E+15
 1.202574E+02  1.85174324E+15  1.04092002E+15  1.81759020E+15  1.24646152E+15  1.24646152E+15  1.42507946E+15
 1.195282E+02  1.80259462E+15  1.23914272E+15  1.75243197E+15  1.25406610E+15  1.25406610E+15  1.42587316E+15
 1.188089E+02  1.75219145E+15  1.41873508E+15  1.68444038E+15  1.26165859E+15  1.26165859E+15  1.42882835E+15
 1.180971E+02  1.68951620E+15  1.48135704E+15  1.61691435E+15  1.26926317E+15  1.26926317E+15  1.43033266E+15
 1.173937E+02  1.60642731E+15  1.44515891E+15  1.55356498E+15  1.27686774E+15  1.27686774E+15  1.43711465E+15
 1.166998E+02  1.51746132E+15  1.37231731E+15  1.50705719E+15  1.28446023E+15  1.28446023E+15  1.45400898E+15
 1.160129E+02  1.43483797E+15  1.31997341E+15  1.49517740E+15  1.29206481E+15  1.29206481E+15  1.46481387E+15
 1.153341E+02  1.35815451E+15  1.31656509E+15  1.52620176E+15  1.29966939E+15  1.29966939E+15  1.44458252E+15
 1.146643E+02  1.28190099E+15  1.34059705E+15  1.57655782E+15  1.30726187E+15  1.30726187E+15  1.39798585E+15
 1.140011E+02  1.19771185E+15  1.34129527E+15  1.59427557E+15  1.31486645E+15  1.31486645E+15  1.34957892E+15
 1.133456E+02  1.10280859E+15  1.29350891E+15  1.55562267E+15  1.32247103E+15  1.32247103E+15  1.30924632E+15
 1.126986E+02  1.01443944E+15  1.21381596E+15  1.49140022E+15  1.33006351E+15  1.33006351E+15  1.27047667E+15
 1.120579E+02  9.45330040E+14  1.12832303E+15  1.42876329E+15  1.33766809E+15  1.33766809E+15  1.23627285E+15
 1.114244E+02  8.85996579E+14  1.05254134E+15  1.36491365E+15  1.34527267E+15  1.34527267E+15  1.21182162E+15
 1.107991E+02  8.21865582E+14  9.86103412E+14  1.29712711E+15  1.35286516E+15  1.35286516E+15  1.19079191E+15
 1.101798E+02  7.50299057E+14  9.18181022E+14  1.23231348E+15  1.36046973E+15  1.36046973E+15  1.16687489E+15
