 #Energy          XX              YY             ZZ              XY              YZ              XZ
 1.239842E+06  1.97499206E-01  2.00362440E-01  1.96658694E-01  1.00000000E+00  1.00000000E+00  1.00000000E+00
 1.971132E+04  1.97520352E-01  2.00383334E-01  1.96679917E-01  1.00000000E+00  1.00000000E+00  7.23621302E-01
 9.863500E+03  1.97578503E-01  2.00448608E-01  1.96735633E-01  1.00000000E+00  1.00000000E+00  5.55119095E-01
 6.573923E+03  1.97676273E-01  2.00555629E-01  1.96833754E-01  1.00000000E+00  1.00000000E+00  4.58461135E-01
 4.929789E+03  1.97810967E-01  2.00704325E-01  1.96968938E-01  1.00000000E+00  1.00000000E+00  4.03277503E-01
 3.944772E+03  1.97987801E-01  2.00897233E-01  1.97141120E-01  1.00000000E+00  1.00000000E+00  3.72084212E-01
 3.286962E+03  1.98201424E-01  2.01131651E-01  1.97355510E-01  1.00000000E+00  1.00000000E+00  3.55259817E-01
 2.817182E+03  1.98456962E-01  2.01412628E-01  1.97609343E-01  1.00000000E+00  1.00000000E+00  3.47486455E-01
 2.465385E+03  1.98751701E-01  2.01737423E-01  1.97899875E-01  1.00000000E+00  1.00000000E+00  3.45587471E-01
 2.191308E+03  1.99088081E-01  2.02108420E-01  1.98234861E-01  1.00000000E+00  1.00000000E+00  3.47584857E-01
 1.972072E+03  1.99465943E-01  2.02522860E-01  1.98608841E-01  1.00000000E+00  1.00000000E+00  3.52209274E-01
 1.792975E+03  1.99885060E-01  2.02985619E-01  1.99026915E-01  1.00000000E+00  1.00000000E+00  3.58682927E-01
 1.643481E+03  2.00347869E-01  2.03496462E-01  1.99486184E-01  1.00000000E+00  1.00000000E+00  3.66428800E-01
 1.517183E+03  2.00856686E-01  2.04055044E-01  1.99989040E-01  1.00000000E+00  1.00000000E+00  3.75046327E-01
 1.408751E+03  2.01408616E-01  2.04661055E-01  2.00535199E-01  1.00000000E+00  1.00000000E+00  3.84131394E-01
 1.314785E+03  2.02005938E-01  2.05321740E-01  2.01126990E-01  1.00000000E+00  1.00000000E+00  3.93591899E-01
 1.232692E+03  2.02648338E-01  2.06034122E-01  2.01766621E-01  1.00000000E+00  1.00000000E+00  4.03248558E-01
 1.160140E+03  2.03343120E-01  2.06800303E-01  2.02453734E-01  1.00000000E+00  1.00000000E+00  4.12949042E-01
 1.095654E+03  2.04084766E-01  2.07622184E-01  2.03190482E-01  1.00000000E+00  1.00000000E+00  4.22631605E-01
 1.038046E+03  2.04880406E-01  2.08501770E-01  2.03978912E-01  1.00000000E+00  1.00000000E+00  4.32143176E-01
 9.861146E+02  2.05727024E-01  2.09440904E-01  2.04818582E-01  1.00000000E+00  1.00000000E+00  4.41522202E-01
 9.391319E+02  2.06629134E-01  2.10441347E-01  2.05711483E-01  1.00000000E+00  1.00000000E+00  4.50740380E-01
 8.964873E+02  2.07588553E-01  2.11507311E-01  2.06662014E-01  1.00000000E+00  1.00000000E+00  4.59759086E-01
 8.574880E+02  2.08607123E-01  2.12642754E-01  2.07672030E-01  1.00000000E+00  1.00000000E+00  4.68550457E-01
 8.217404E+02  2.09689113E-01  2.13846752E-01  2.08740740E-01  1.00000000E+00  1.00000000E+00  4.76975330E-01
 7.889042E+02  2.10836111E-01  2.15125543E-01  2.09874875E-01  1.00000000E+00  1.00000000E+00  4.85178345E-01
 7.585451E+02  2.12052080E-01  2.16480279E-01  2.11075942E-01  1.00000000E+00  1.00000000E+00  4.93086622E-01
 7.304359E+02  2.13338437E-01  2.17919302E-01  2.12347887E-01  1.00000000E+00  1.00000000E+00  5.00630512E-01
 7.043756E+02  2.14698944E-01  2.19445937E-01  2.13691971E-01  1.00000000E+00  1.00000000E+00  5.07930095E-01
 6.800735E+02  2.16141983E-01  2.21065533E-01  2.15116743E-01  1.00000000E+00  1.00000000E+00  5.14841420E-01
 6.573923E+02  2.17670953E-01  2.22783232E-01  2.16623173E-01  1.00000000E+00  1.00000000E+00  5.21315657E-01
 6.362079E+02  2.19291382E-01  2.24606306E-01  2.18216928E-01  1.00000000E+00  1.00000000E+00  5.27522862E-01
 6.163155E+02  2.21008704E-01  2.26543963E-01  2.19905793E-01  1.00000000E+00  1.00000000E+00  5.33329716E-01
 5.976294E+02  2.22832615E-01  2.28602721E-01  2.21697379E-01  1.00000000E+00  1.00000000E+00  5.38552690E-01
 5.800701E+02  2.24767967E-01  2.30793223E-01  2.23594043E-01  1.00000000E+00  1.00000000E+00  5.43338365E-01
 5.634877E+02  2.26817448E-01  2.33123809E-01  2.25607521E-01  1.00000000E+00  1.00000000E+00  5.47426229E-01
 5.478269E+02  2.28973923E-01  2.35597555E-01  2.27737690E-01  1.00000000E+00  1.00000000E+00  5.50725356E-01
 5.330361E+02  2.31222907E-01  2.38203504E-01  2.29983781E-01  1.00000000E+00  1.00000000E+00  5.53255501E-01
 5.190012E+02  2.33580489E-01  2.40956110E-01  2.32344603E-01  1.00000000E+00  1.00000000E+00  5.55127154E-01
 5.057070E+02  2.36084566E-01  2.43888041E-01  2.34833556E-01  1.00000000E+00  1.00000000E+00  5.57207997E-01
 4.930573E+02  2.38796293E-01  2.47044016E-01  2.37497060E-01  1.00000000E+00  1.00000000E+00  5.59639183E-01
 4.810250E+02  2.41773069E-01  2.50471279E-01  2.40378972E-01  1.00000000E+00  1.00000000E+00  5.60890745E-01
 4.695837E+02  2.45014178E-01  2.54213555E-01  2.43485191E-01  1.00000000E+00  1.00000000E+00  5.59690862E-01
 4.586571E+02  2.48519804E-01  2.58299375E-01  2.46817484E-01  1.00000000E+00  1.00000000E+00  5.56517729E-01
 4.482274E+02  2.52325213E-01  2.62758164E-01  2.50418945E-01  1.00000000E+00  1.00000000E+00  5.51146229E-01
 4.382770E+02  2.56451955E-01  2.67652580E-01  2.54338581E-01  1.00000000E+00  1.00000000E+00  5.41008950E-01
 4.287440E+02  2.60834390E-01  2.73016380E-01  2.58593081E-01  1.00000000E+00  1.00000000E+00  5.23568572E-01
 4.196169E+02  2.65301481E-01  2.78750819E-01  2.63094140E-01  1.00000000E+00  1.00000000E+00  4.98360804E-01
 4.108838E+02  2.69600644E-01  2.84481724E-01  2.67665021E-01  1.00000000E+00  1.00000000E+00  4.69617118E-01
 4.024938E+02  2.73564307E-01  2.89597782E-01  2.72208879E-01  1.00000000E+00  1.00000000E+00  4.45371687E-01
 3.944396E+02  2.77162519E-01  2.93877077E-01  2.76697132E-01  1.00000000E+00  1.00000000E+00  4.29640774E-01
 3.867134E+02  2.80348209E-01  2.97730565E-01  2.81057482E-01  1.00000000E+00  1.00000000E+00  4.22930275E-01
 3.792725E+02  2.83286456E-01  3.01321187E-01  2.85307778E-01  1.00000000E+00  1.00000000E+00  4.26625021E-01
 3.721126E+02  2.86625028E-01  3.04577342E-01  2.89770255E-01  1.00000000E+00  1.00000000E+00  4.37757716E-01
 3.652287E+02  2.90949280E-01  3.08247869E-01  2.94917048E-01  1.00000000E+00  1.00000000E+00  4.41029646E-01
 3.585845E+02  2.96233803E-01  3.12885371E-01  3.00903654E-01  1.00000000E+00  1.00000000E+00  4.24881580E-01
 3.521778E+02  3.02073392E-01  3.18028178E-01  3.07434067E-01  1.00000000E+00  1.00000000E+00  3.90070352E-01
 3.460056E+02  3.07923577E-01  3.23836273E-01  3.13960767E-01  1.00000000E+00  1.00000000E+00  3.43613622E-01
 3.400367E+02  3.13600643E-01  3.30948540E-01  3.20329184E-01  1.00000000E+00  1.00000000E+00  2.96390582E-01
 3.342703E+02  3.19165659E-01  3.39319360E-01  3.26686586E-01  1.00000000E+00  1.00000000E+00  2.53336962E-01
 3.287049E+02  3.24330543E-01  3.48683648E-01  3.32884121E-01  1.00000000E+00  1.00000000E+00  2.15591687E-01
 3.233133E+02  3.28769603E-01  3.58698557E-01  3.38434186E-01  1.00000000E+00  1.00000000E+00  1.83891629E-01
 3.181039E+02  3.32244447E-01  3.68684177E-01  3.42597065E-01  1.00000000E+00  1.00000000E+00  1.56715553E-01
 3.130519E+02  3.35100793E-01  3.77660437E-01  3.45573353E-01  1.00000000E+00  1.00000000E+00  1.33226904E-01
 3.081578E+02  3.37505679E-01  3.84027326E-01  3.48129065E-01  1.00000000E+00  1.00000000E+00  1.09730346E-01
 3.034217E+02  3.39022205E-01  3.86301931E-01  3.50120704E-01  1.00000000E+00  1.00000000E+00  8.73618854E-02
 2.988219E+02  3.40989110E-01  3.85423142E-01  3.51921087E-01  1.00000000E+00  1.00000000E+00  7.16501309E-02
 2.943594E+02  3.44446274E-01  3.84746515E-01  3.53799952E-01  1.00000000E+00  1.00000000E+00  6.13802502E-02
 2.900351E+02  3.48839811E-01  3.85721163E-01  3.55217166E-01  1.00000000E+00  1.00000000E+00  5.25055076E-02
 2.858293E+02  3.53945691E-01  3.87967980E-01  3.57140237E-01  1.00000000E+00  1.00000000E+00  4.40434266E-02
 2.817438E+02  3.59577101E-01  3.91021756E-01  3.60909837E-01  1.00000000E+00  1.00000000E+00  3.50137729E-02
 2.777797E+02  3.64895561E-01  3.94397857E-01  3.65957410E-01  1.00000000E+00  1.00000000E+00  2.55639883E-02
 2.739195E+02  3.68870564E-01  3.97916473E-01  3.70468647E-01  1.00000000E+00  1.00000000E+00  1.80875130E-02
 2.701652E+02  3.71846598E-01  4.02297654E-01  3.73219057E-01  1.00000000E+00  1.00000000E+00  1.60050932E-02
 2.665180E+02  3.74590896E-01  4.07874537E-01  3.73554583E-01  1.00000000E+00  1.00000000E+00  1.83217426E-02
 2.629625E+02  3.77756288E-01  4.11976067E-01  3.73063284E-01  1.00000000E+00  1.00000000E+00  1.80074398E-02
 2.595006E+02  3.81372987E-01  4.11916353E-01  3.73232281E-01  1.00000000E+00  1.00000000E+00  1.45622391E-02
 2.561339E+02  3.84034515E-01  4.07144035E-01  3.73264888E-01  1.00000000E+00  1.00000000E+00  1.14857561E-02
 2.528484E+02  3.85180756E-01  3.98203125E-01  3.72173282E-01  1.00000000E+00  1.00000000E+00  9.98826140E-03
 2.496460E+02  3.85556566E-01  3.86486455E-01  3.70048846E-01  1.00000000E+00  1.00000000E+00  9.38820089E-03
 2.465287E+02  3.85872827E-01  3.74763052E-01  3.67366708E-01  1.00000000E+00  1.00000000E+00  8.91584849E-03
 2.434834E+02  3.86303538E-01  3.65431963E-01  3.64680579E-01  1.00000000E+00  1.00000000E+00  7.75625372E-03
 2.405125E+02  3.87122963E-01  3.59257378E-01  3.62932879E-01  1.00000000E+00  1.00000000E+00  6.65532120E-03
 2.376178E+02  3.88060615E-01  3.55415623E-01  3.61640719E-01  1.00000000E+00  1.00000000E+00  6.29134450E-03
 2.347874E+02  3.88335967E-01  3.51727434E-01  3.59255103E-01  1.00000000E+00  1.00000000E+00  6.61390808E-03
 2.320237E+02  3.87479245E-01  3.47115432E-01  3.56150171E-01  1.00000000E+00  1.00000000E+00  7.51937289E-03
 2.293286E+02  3.85359921E-01  3.42087408E-01  3.53491924E-01  1.00000000E+00  1.00000000E+00  9.11239529E-03
 2.266912E+02  3.82590578E-01  3.37359779E-01  3.51109277E-01  1.00000000E+00  1.00000000E+00  1.13406339E-02
 2.241178E+02  3.79809567E-01  3.33484184E-01  3.48355677E-01  1.00000000E+00  1.00000000E+00  1.39133303E-02
 2.215982E+02  3.76592842E-01  3.30418165E-01  3.44639147E-01  1.00000000E+00  1.00000000E+00  1.67617251E-02
 2.191346E+02  3.71872613E-01  3.28064343E-01  3.38997352E-01  1.00000000E+00  1.00000000E+00  2.02040288E-02
 2.167291E+02  3.65263718E-01  3.26320493E-01  3.31221099E-01  1.00000000E+00  1.00000000E+00  2.44535946E-02
 2.143720E+02  3.57704051E-01  3.25373294E-01  3.23236596E-01  1.00000000E+00  1.00000000E+00  2.94390792E-02
 2.120657E+02  3.50260988E-01  3.25398973E-01  3.16208672E-01  1.00000000E+00  1.00000000E+00  3.50970528E-02
 2.098120E+02  3.43732695E-01  3.25457740E-01  3.09416515E-01  1.00000000E+00  1.00000000E+00  4.08411240E-02
 2.076022E+02  3.37504652E-01  3.24311466E-01  3.01373221E-01  1.00000000E+00  1.00000000E+00  4.64484045E-02
 2.054385E+02  3.30026248E-01  3.21134795E-01  2.91633648E-01  1.00000000E+00  1.00000000E+00  5.26744480E-02
 2.033228E+02  3.20658331E-01  3.15670898E-01  2.81738158E-01  1.00000000E+00  1.00000000E+00  5.92908422E-02
 2.012469E+02  3.10804300E-01  3.08416163E-01  2.73735645E-01  1.00000000E+00  1.00000000E+00  6.50484989E-02
 1.992130E+02  3.02880929E-01  3.00701477E-01  2.69017856E-01  1.00000000E+00  1.00000000E+00  7.23464919E-02
 1.972229E+02  2.98206688E-01  2.93621472E-01  2.68161165E-01  1.00000000E+00  1.00000000E+00  8.38037433E-02
 1.952691E+02  2.97426240E-01  2.87728295E-01  2.71252150E-01  1.00000000E+00  1.00000000E+00  9.77959562E-02
 1.933537E+02  3.00835655E-01  2.83206561E-01  2.77659149E-01  1.00000000E+00  1.00000000E+00  1.12650244E-01
 1.914784E+02  3.07583483E-01  2.80220577E-01  2.86253869E-01  1.00000000E+00  1.00000000E+00  1.28139961E-01
 1.896363E+02  3.16509908E-01  2.78913724E-01  2.96172811E-01  1.00000000E+00  1.00000000E+00  1.42431704E-01
 1.878292E+02  3.26430022E-01  2.78893689E-01  3.06307827E-01  1.00000000E+00  1.00000000E+00  1.54996857E-01
 1.860591E+02  3.35978781E-01  2.78768665E-01  3.15253096E-01  1.00000000E+00  1.00000000E+00  1.62869899E-01
 1.843193E+02  3.43787999E-01  2.77433640E-01  3.22288092E-01  1.00000000E+00  1.00000000E+00  1.64458440E-01
 1.826117E+02  3.49702589E-01  2.75699633E-01  3.28544788E-01  1.00000000E+00  1.00000000E+00  1.68529841E-01
 1.809381E+02  3.54464328E-01  2.74771784E-01  3.35009618E-01  1.00000000E+00  1.00000000E+00  1.83739029E-01
 1.792923E+02  3.58403796E-01  2.74583597E-01  3.41793500E-01  1.00000000E+00  1.00000000E+00  2.07111774E-01
 1.776787E+02  3.61225290E-01  2.75344707E-01  3.48934237E-01  1.00000000E+00  1.00000000E+00  2.33245735E-01
 1.760914E+02  3.62913150E-01  2.77498536E-01  3.56494397E-01  1.00000000E+00  1.00000000E+00  2.63384354E-01
 1.745322E+02  3.64501610E-01  2.80549872E-01  3.64673706E-01  1.00000000E+00  1.00000000E+00  3.04211226E-01
 1.730028E+02  3.66449365E-01  2.83532005E-01  3.72734364E-01  1.00000000E+00  1.00000000E+00  3.56628167E-01
 1.714976E+02  3.68193030E-01  2.85685161E-01  3.79316271E-01  1.00000000E+00  1.00000000E+00  4.07355497E-01
 1.700184E+02  3.69430233E-01  2.87102610E-01  3.83726013E-01  1.00000000E+00  1.00000000E+00  4.36183684E-01
 1.685667E+02  3.70247624E-01  2.88322686E-01  3.86755083E-01  1.00000000E+00  1.00000000E+00  4.60627724E-01
 1.671374E+02  3.70868860E-01  2.89096756E-01  3.90138067E-01  1.00000000E+00  1.00000000E+00  5.03508257E-01
 1.657321E+02  3.71314477E-01  2.89208068E-01  3.93781368E-01  1.00000000E+00  1.00000000E+00  5.39049773E-01
 1.643524E+02  3.71573462E-01  2.88935893E-01  3.95569427E-01  1.00000000E+00  1.00000000E+00  5.55767286E-01
 1.629934E+02  3.71457653E-01  2.87807244E-01  3.94365544E-01  1.00000000E+00  1.00000000E+00  5.90370061E-01
 1.616567E+02  3.70382756E-01  2.84830943E-01  3.90887159E-01  1.00000000E+00  1.00000000E+00  6.56252719E-01
 1.603437E+02  3.68429784E-01  2.80204374E-01  3.86005285E-01  1.00000000E+00  1.00000000E+00  7.39084779E-01
 1.590499E+02  3.66250699E-01  2.75080772E-01  3.80270887E-01  1.00000000E+00  1.00000000E+00  8.38351199E-01
 1.577768E+02  3.64020304E-01  2.71018492E-01  3.74622195E-01  1.00000000E+00  1.00000000E+00  9.71566671E-01
 1.565259E+02  3.62222891E-01  2.69019675E-01  3.70594071E-01  1.00000000E+00  1.00000000E+00  8.67758725E-01
 1.552928E+02  3.61743865E-01  2.68149892E-01  3.68983165E-01  1.00000000E+00  1.00000000E+00  7.21822751E-01
 1.540789E+02  3.62767602E-01  2.67694413E-01  3.69967572E-01  1.00000000E+00  1.00000000E+00  5.99276231E-01
 1.528857E+02  3.63932080E-01  2.67296355E-01  3.72126053E-01  1.00000000E+00  1.00000000E+00  4.92834703E-01
 1.517090E+02  3.63704818E-01  2.66025645E-01  3.72531435E-01  1.00000000E+00  1.00000000E+00  3.57511806E-01
 1.505503E+02  3.62233436E-01  2.63640141E-01  3.69284681E-01  1.00000000E+00  1.00000000E+00  2.79887065E-01
 1.494109E+02  3.60092268E-01  2.61196425E-01  3.62951371E-01  1.00000000E+00  1.00000000E+00  2.52243431E-01
 1.482869E+02  3.56474028E-01  2.60007820E-01  3.55785861E-01  1.00000000E+00  1.00000000E+00  2.43490659E-01
 1.471797E+02  3.51034108E-01  2.60789511E-01  3.48881544E-01  1.00000000E+00  1.00000000E+00  2.35623749E-01
 1.460906E+02  3.46298400E-01  2.63043095E-01  3.42952941E-01  1.00000000E+00  1.00000000E+00  2.29719012E-01
 1.450158E+02  3.44861103E-01  2.65657353E-01  3.39427206E-01  1.00000000E+00  1.00000000E+00  2.51053786E-01
 1.439584E+02  3.43931867E-01  2.67423226E-01  3.36140331E-01  1.00000000E+00  1.00000000E+00  3.01613875E-01
 1.429147E+02  3.39555427E-01  2.68128855E-01  3.29866806E-01  1.00000000E+00  1.00000000E+00  3.59168645E-01
 1.418859E+02  3.32359731E-01  2.68070883E-01  3.21423013E-01  1.00000000E+00  1.00000000E+00  4.00964804E-01
 1.408735E+02  3.25723955E-01  2.67002703E-01  3.14266007E-01  1.00000000E+00  1.00000000E+00  4.19630430E-01
 1.398739E+02  3.22665068E-01  2.64669849E-01  3.11986154E-01  1.00000000E+00  1.00000000E+00  4.35316155E-01
 1.388883E+02  3.22493545E-01  2.61638495E-01  3.14060663E-01  1.00000000E+00  1.00000000E+00  4.81806105E-01
 1.379181E+02  3.21867283E-01  2.58763092E-01  3.16175189E-01  1.00000000E+00  1.00000000E+00  5.60318114E-01
 1.369598E+02  3.20469391E-01  2.55485600E-01  3.16656670E-01  1.00000000E+00  1.00000000E+00  6.41121205E-01
 1.360147E+02  3.20678985E-01  2.50773791E-01  3.17239820E-01  1.00000000E+00  1.00000000E+00  7.07945513E-01
 1.350840E+02  3.23067149E-01  2.45828278E-01  3.19130654E-01  1.00000000E+00  1.00000000E+00  7.81226028E-01
 1.341646E+02  3.26767150E-01  2.42243166E-01  3.21687943E-01  1.00000000E+00  1.00000000E+00  8.90735515E-01
 1.332576E+02  3.30728749E-01  2.39412720E-01  3.23698636E-01  1.00000000E+00  1.00000000E+00  9.77961294E-01
 1.323642E+02  3.34105501E-01  2.36188440E-01  3.25071171E-01  1.00000000E+00  1.00000000E+00  8.70376528E-01
 1.314813E+02  3.35767500E-01  2.32233346E-01  3.25843851E-01  1.00000000E+00  1.00000000E+00  7.75796418E-01
 1.306100E+02  3.35036672E-01  2.27597042E-01  3.25525452E-01  1.00000000E+00  1.00000000E+00  6.99911682E-01
 1.297517E+02  3.32534057E-01  2.23594647E-01  3.23994715E-01  1.00000000E+00  1.00000000E+00  6.65474215E-01
 1.289031E+02  3.28813423E-01  2.21503881E-01  3.21154838E-01  1.00000000E+00  1.00000000E+00  6.72503174E-01
 1.280656E+02  3.24175961E-01  2.20783642E-01  3.17260588E-01  1.00000000E+00  1.00000000E+00  6.98436058E-01
 1.272403E+02  3.19474227E-01  2.19752973E-01  3.13167937E-01  1.00000000E+00  1.00000000E+00  7.39702246E-01
 1.264242E+02  3.15503872E-01  2.16987039E-01  3.09471297E-01  1.00000000E+00  1.00000000E+00  7.88056283E-01
 1.256185E+02  3.11692969E-01  2.13062706E-01  3.06516082E-01  1.00000000E+00  1.00000000E+00  7.94028963E-01
 1.248243E+02  3.06844333E-01  2.09711651E-01  3.03998747E-01  1.00000000E+00  1.00000000E+00  7.32279353E-01
 1.240388E+02  2.99681639E-01  2.07925234E-01  2.99346182E-01  1.00000000E+00  1.00000000E+00  6.46021172E-01
 1.232643E+02  2.90285126E-01  2.07492258E-01  2.90922739E-01  1.00000000E+00  1.00000000E+00  5.70322740E-01
 1.224983E+02  2.81563312E-01  2.08089016E-01  2.81835598E-01  1.00000000E+00  1.00000000E+00  5.13267171E-01
 1.217417E+02  2.76353865E-01  2.09862695E-01  2.75311972E-01  1.00000000E+00  1.00000000E+00  4.74570256E-01
 1.209956E+02  2.72469918E-01  2.14093073E-01  2.69508614E-01  1.00000000E+00  1.00000000E+00  4.52201372E-01
 1.202574E+02  2.66344581E-01  2.22982106E-01  2.61752431E-01  1.00000000E+00  1.00000000E+00  4.44112694E-01
 1.195282E+02  2.58476854E-01  2.34719982E-01  2.52358119E-01  1.00000000E+00  1.00000000E+00  4.41251786E-01
 1.188089E+02  2.50256269E-01  2.41972360E-01  2.42715615E-01  1.00000000E+00  1.00000000E+00  4.32801811E-01
 1.180971E+02  2.40098023E-01  2.40201159E-01  2.33358122E-01  1.00000000E+00  1.00000000E+00  4.22111479E-01
 1.173937E+02  2.26713071E-01  2.31925259E-01  2.24953552E-01  1.00000000E+00  1.00000000E+00  4.16280747E-01
 1.166998E+02  2.12411545E-01  2.22458341E-01  2.19085650E-01  1.00000000E+00  1.00000000E+00  4.09349426E-01
 1.160129E+02  1.99247387E-01  2.16348998E-01  2.17390549E-01  1.00000000E+00  1.00000000E+00  3.81658969E-01
 1.153341E+02  1.87205856E-01  2.14535960E-01  2.19875503E-01  1.00000000E+00  1.00000000E+00  3.34437407E-01
 1.146643E+02  1.75517920E-01  2.13813077E-01  2.23422901E-01  1.00000000E+00  1.00000000E+00  2.88545712E-01
 1.140011E+02  1.63223439E-01  2.09962365E-01  2.22704033E-01  1.00000000E+00  1.00000000E+00  2.54984516E-01
 1.133456E+02  1.50713198E-01  2.01877558E-01  2.15572957E-01  1.00000000E+00  1.00000000E+00  2.30363569E-01
 1.126986E+02  1.40677379E-01  1.91927719E-01  2.05832378E-01  1.00000000E+00  1.00000000E+00  2.08782451E-01
 1.120579E+02  1.33762523E-01  1.82758318E-01  1.96593744E-01  1.00000000E+00  1.00000000E+00  1.91763297E-01
 1.114244E+02  1.28010913E-01  1.75441945E-01  1.87409837E-01  1.00000000E+00  1.00000000E+00  1.79886774E-01
 1.107991E+02  1.22019112E-01  1.69451923E-01  1.78184648E-01  1.00000000E+00  1.00000000E+00  1.69078061E-01
 1.101798E+02  1.16231561E-01  1.63947162E-01  1.69842008E-01  1.00000000E+00  1.00000000E+00  1.57190181E-01
